"Phi [deg]"	"ang_rad(rETheta) [rad] - Freq='1.5GHz' Theta='90.0000000000002deg'"
0	-2.00817293301972
1	-2.04860291531938
2	-2.08822276741774
3	-2.12704746896194
4	-2.16509761273331
5	-2.2023992557346
6	-2.23898379256336
7	-2.27488785295004
8	-2.31015322520579
9	-2.34482680732951
10	-2.37896058759606
11	-2.41261165650799
12	-2.44584225195165
13	-2.47871983914554
14	-2.51131722636755
15	-2.54371271632608
16	-2.57599029117457
17	-2.60823982627414
18	-2.64055732352003
19	-2.67304514890808
20	-2.70581225046869
21	-2.73897432108196
22	-2.77265385527826
23	-2.80698002919165
24	-2.84208830777503
25	-2.87811965301069
26	-2.91521917179433
27	-2.95353400457689
28	-2.99321022032383
29	-3.03438845820885
30	-3.07719805504274
31	-3.12174943907086
32	3.11506062687013
33	3.06681901515123
34	3.01672060905689
35	2.96484009030309
36	2.911329385019
37	2.85642707893609
38	2.80046296619612
39	2.7438556779648
40	2.68710197025187
41	2.63075744772506
42	2.57541006379621
43	2.52164925989376
44	2.47003460492656
45	2.42106791926189
46	2.37517207087604
47	2.33267819756108
48	2.29382150828009
49	2.25874449338324
50	2.22750558570206
51	2.20009109421346
52	2.17642844650012
53	2.1563992299686
54	2.13985103824695
55	2.12660759107681
56	2.11647694845888
57	2.10925787405816
58	2.10474453587286
59	2.10272979024881
60	2.10300730429648
61	2.10537275246196
62	2.10962429021942
63	2.11556247108244
64	2.12298973786559
65	2.13170958815049
66	2.14152548836843
67	2.15223959107931
68	2.16365129583952
69	2.17555568546511
70	2.18774186672756
71	2.19999124824295
72	2.21207579982851
73	2.22375635898789
74	2.23478108446022
75	2.24488420793763
76	2.25378530799043
77	2.261189430074
78	2.26678850712963
79	2.27026469629661
80	2.27129642816463
81	2.26956813609373
82	2.26478473246047
83	2.25669181792612
84	2.24510218756885
85	2.22992823887213
86	2.21121823616388
87	2.18919208178877
88	2.16426972685766
89	2.13708361341376
90	2.10846695596205
91	2.07941334930763
92	2.05100994906725
93	2.02435421915
94	2.00046963024232
95	1.9802360468107
96	1.96434567401634
97	1.95328779286934
98	1.9473584759241
99	1.94668736383153
100	1.95127280190221
101	1.9610181842425
102	1.97576483713208
103	1.99531913652401
104	2.01947329152836
105	2.04802026009688
106	2.08076373558985
107	2.11752424896434
108	2.1581423384688
109	2.20247956201727
110	2.25041793424877
111	2.30185819437164
112	2.35671716579996
113	2.41492435760459
114	2.47641788023147
115	2.54113970258448
116	2.60903026429173
117	2.68002247692707
118	2.75403520271788
119	2.8309663889574
120	2.91068615682626
121	2.99303028294129
122	3.07779464864111
123	-3.11845397451196
124	-3.02963826036695
125	-2.93928078499003
126	-2.84775808426392
127	-2.75547790474584
128	-2.66286823253885
129	-2.57036427381655
130	-2.47839458587089
131	-2.38736769848229
132	-2.29766047683034
133	-2.20960918275005
134	-2.12350376722152
135	-2.03958547454744
136	-1.95804745000716
137	-1.87903777697181
138	-1.80266424427862
139	-1.72900014335129
140	-1.65809048068103
141	-1.58995812387104
142	-1.52460954361222
143	-1.4620399457726
144	-1.40223769449815
145	-1.34518800490287
146	-1.29087593430498
147	-1.23928872862804
148	-1.19041759095172
149	-1.1442589373287
150	-1.10081519504236
151	-1.06009518360917
152	-1.02211410129216
153	-0.986893121313307
154	-0.954458583618496
155	-0.9248407512022
156	-0.898072086134116
157	-0.874184991555523
158	-0.853208964762826
159	-0.835167116617855
160	-0.820072038151893
161	-0.807921040778318
162	-0.798690865559553
163	-0.792332050501511
164	-0.788763259041429
165	-0.787865996573194
166	-0.789480254693321
167	-0.793401695707133
168	-0.799380988859666
169	-0.807125804555996
170	-0.816305749162923
171	-0.826560194243278
172	-0.837508567280722
173	-0.848762301028075
174	-0.859937369692648
175	-0.870666239160805
176	-0.880608151535184
177	-0.889456927215385
178	-0.896945834966181
179	-0.902849467958538
180	-0.906982895976595
181	-0.909198592620247
182	-0.909381746828592
183	-0.907444574032052
184	-0.903320173766886
185	-0.896956371992735
186	-0.888309867552725
187	-0.87734089453809
188	-0.864008528107295
189	-0.84826670568528
190	-0.830061008829893
191	-0.809326251333257
192	-0.7859849433424
193	-0.759946746217346
194	-0.731109094838514
195	-0.699359237931883
196	-0.664578023926964
197	-0.62664582458796
198	-0.585451015725076
199	-0.540901384941626
200	-0.492938658090053
201	-0.441555969189837
202	-0.386817495432868
203	-0.32887864083609
204	-0.268004180213499
205	-0.20458091544806
206	-0.139121035929689
207	-0.0722529401636394
208	-0.00469801313672669
209	0.0627654177917523
210	0.129346723466491
211	0.194289754661412
212	0.256914737943248
213	0.316649584593401
214	0.373047586829014
215	0.4257914802676
216	0.474686228050819
217	0.519644128526704
218	0.560665985016939
219	0.597821455024185
220	0.631230747454059
221	0.661048895065312
222	0.687453078285463
223	0.710632969234416
224	0.730783776839487
225	0.748101549329879
226	0.762780271017502
227	0.77501032921191
228	0.784977991898654
229	0.792865607528968
230	0.798852304203077
231	0.803115021892255
232	0.80582975678781
233	0.807172931789299
234	0.807322832654068
235	0.806461066636433
236	0.804774010545249
237	0.802454218671843
238	0.799701758173244
239	0.796725429958324
240	0.793743816175982
241	0.79098606989669
242	0.788692327098532
243	0.787113574249641
244	0.786510745911176
245	0.787152756909148
246	0.789313097334421
247	0.793264546791964
248	0.799271517681337
249	0.807579550401421
250	0.818401606999615
251	0.831901108062104
252	0.848172193980105
253	0.867218496847148
254	0.888932729375773
255	0.913080435307336
256	0.939291933434642
257	0.967066346463991
258	0.995790243309152
259	1.02477081846667
260	1.05328025142134
261	1.08060500573908
262	1.10609246748721
263	1.1291880605194
264	1.14945849772433
265	1.16660011607211
266	1.18043414708658
267	1.19089254362137
268	1.19799847125553
269	1.20184508817316
270	1.20257525988434
271	1.2003637990789
272	1.19540293605811
273	1.18789110369135
274	1.17802475181463
275	1.16599273186947
276	1.15197274746527
277	1.13612939511793
278	1.11861338252115
279	1.09956158503535
280	1.07909767142452
281	1.05733309129644
282	1.03436826751716
283	1.01029387757306
284	0.985192139852525
285	0.959138045731028
286	0.932200497651055
287	0.904443328309017
288	0.875926187535693
289	0.846705292185366
290	0.816834040849624
291	0.786363499875486
292	0.755342770301617
293	0.723819247188662
294	0.691838783637928
295	0.659445771776435
296	0.626683152331591
297	0.593592363308373
298	0.560213236885142
299	0.526583852114733
300	0.492740349493217
301	0.45871671206112
302	0.424544516536787
303	0.390252657139979
304	0.355867044322774
305	0.321410280646978
306	0.286901316580098
307	0.252355090054641
308	0.217782155253976
309	0.183188308228851
310	0.148574219549932
311	0.113935087155088
312	0.0792603256912446
313	0.0445333117546455
314	0.00973120721314408
315	-0.0251751150917174
316	-0.0602210178951513
317	-0.0954478933046078
318	-0.130902780974514
319	-0.166637791983699
320	-0.202709326100743
321	-0.239177078591114
322	-0.276102843002178
323	-0.313549127927166
324	-0.351577617849924
325	-0.390247519901971
326	-0.429613848743171
327	-0.469725709861612
328	-0.510624646574018
329	-0.552343117327449
330	-0.594903167287145
331	-0.638315351697796
332	-0.68257795848946
333	-0.727676564691994
334	-0.773583946250843
335	-0.820260344758795
336	-0.867654078447014
337	-0.915702469520774
338	-0.964333046516405
339	-1.01346496960207
340	-1.0630106192637
341	-1.11287728498751
342	-1.16296889047442
343	-1.21318769540848
344	-1.26343592038679
345	-1.31361725060746
346	-1.36363818446026
347	-1.41340920436954
348	-1.4628457582369
349	-1.51186904988257
350	-1.5604066454345
351	-1.60839290931935
352	-1.65576928824385
353	-1.70248446437543
354	-1.74849440004391
355	-1.79376229598786
356	-1.83825848380652
357	-1.8819602711954
358	-1.92485175606054
359	-1.96692362298986
360	-2.00817293301972
