"Phi [deg]"	"ang_rad(rETheta) [rad] - Freq='0.7GHz' Theta='90.0000000000002deg'"
-180	1.16175334970743
-179	1.10101708865577
-178	1.04207315896284
-177	0.984899675081234
-176	0.929467479595536
-175	0.875741703034155
-174	0.823683227349815
-173	0.773250033956401
-172	0.724398427258504
-171	0.677084132116629
-170	0.631263268856472
-169	0.586893212580012
-168	0.543933345043172
-167	0.502345707606262
-166	0.462095563088645
-165	0.423151873079439
-164	0.385487695639335
-163	0.349080506603084
-162	0.313912446049319
-161	0.279970490103116
-160	0.247246547205888
-159	0.21573747742465
-158	0.185445033344133
-157	0.156375721619603
-156	0.128540585355106
-155	0.101954909057597
-154	0.0766378499060518
-153	0.0526120013305324
-152	0.0299028972523141
-151	0.00853846760649725
-150	-0.011451542236836
-149	-0.0300361739930099
-148	-0.0471838658152812
-147	-0.0628630531113801
-146	-0.0770427459275166
-145	-0.0896930691835871
-144	-0.100785753852837
-143	-0.110294569490101
-142	-0.118195691163006
-141	-0.124467996651763
-140	-0.129093292577899
-139	-0.132056470740249
-138	-0.13334559824664
-137	-0.132951946937862
-136	-0.130869969052481
-135	-0.127097227060566
-134	-0.121634286118523
-133	-0.114484577708845
-132	-0.105654242788419
-131	-0.0951519622474127
-130	-0.0829887817506646
-129	-0.0691779371645218
-128	-0.0537346858266623
-127	-0.036676147946835
-126	-0.0180211614739998
-125	0.00220984713987439
-124	0.0239949746875611
-123	0.0473109346353155
-122	0.0721331320833133
-121	0.0984357207130568
-120	0.126191642712539
-119	0.155372653146795
-118	0.185949330671529
-117	0.21789107688254
-116	0.251166106964134
-115	0.285741434653809
-114	0.321582854882341
-113	0.358654927777651
-112	0.396920968031155
-111	0.436343043903719
-110	0.476881990374681
-109	0.51849744108421
-108	0.561147883752375
-107	0.604790743638229
-106	0.649382499286671
-105	0.694878834258273
-104	0.741234827711625
-103	0.78840518558395
-102	0.836344512686557
-101	0.885007624312951
-100	0.934349893994378
-99	0.984327631907521
-98	1.03489848625186
-97	1.08602185780926
-96	1.13765931603559
-95	1.18977500358266
-94	1.2423360152697
-93	1.29531273735251
-92	1.34867913356618
-91	1.40241296587565
-90	1.45649594011827
-89	1.51091376965266
-88	1.56565615356011
-87	1.6207166696493
-86	1.67609258623131
-85	1.73178460009693
-84	1.78779651110272
-83	1.84413484606254
-82	1.90080844612311
-81	1.95782803242215
-80	2.0152057646111
-79	2.07295480586026
-78	2.13108890639426
-77	2.18962201560259
-76	2.24856793051654
-75	2.30793998611755
-74	2.36775079069545
-73	2.42801200742926
-72	2.48873418160202
-71	2.54992661142999
-70	2.61159725939803
-69	2.67375270023109
-68	2.73639810116146
-67	2.79953722992414
-66	2.86317248587491
-65	2.92730494972407
-64	2.99193444756447
-63	3.05705962510406
-62	3.12267802825853
-61	-3.09439912068314
-60	-3.02780561163524
-59	-2.96073201093186
-58	-2.89318436063088
-57	-2.82516942348799
-56	-2.75669463326383
-55	-2.68776806012046
-54	-2.61839839348594
-53	-2.54859494451452
-52	-2.47836766994495
-51	-2.40772721874325
-50	-2.33668500239182
-49	-2.26525328904266
-48	-2.19344532097995
-47	-2.12127545393586
-46	-2.04875931577977
-45	-1.97591398097198
-44	-1.90275815596743
-43	-1.82931236951408
-42	-1.75559916057095
-41	-1.68164325544192
-40	-1.60747172476525
-39	-1.53311411030701
-38	-1.4586025111737
-37	-1.38397161917642
-36	-1.3092586937221
-35	-1.23450346783132
-34	-1.15974797870234
-33	-1.08503631863281
-32	-1.01041430499591
-31	-0.935929071217436
-30	-0.86162858413936
-29	-0.78756109657176
-28	-0.713774546999873
-27	-0.640315921101189
-26	-0.567230591742533
-25	-0.494561655322189
-24	-0.422349282619459
-23	-0.350630101713064
-22	-0.279436629109347
-21	-0.208796763129636
-20	-0.138733351046058
-19	-0.0692638386604286
-18	-0.000400008233143177
-17	0.0678521918850153
-16	0.135492724694009
-15	0.202527449393537
-14	0.268968014875922
-13	0.33483166331062
-12	0.400140944815261
-11	0.464923343165649
-10	0.529210810987409
-9	0.593039211059676
-8	0.656447658453253
-7	0.719477756472793
-6	0.782172718071543
-5	0.844576363905776
-4	0.906731988890668
-3	0.968681091449045
-2	1.0304619640658
-1	1.09210815070679
0	1.15364678646827
1	1.21509684762892
2	1.27646735589011
3	1.3377555983372
4	1.39894544324556
5	1.46000584929134
6	1.52088967933323
7	1.58153293654897
8	1.64185453711354
9	1.70175671712997
10	1.76112614082487
11	1.81983573280946
12	1.87774720271775
13	1.93471417149712
14	1.99058575260146
15	2.04521039642826
16	2.09843977957355
17	2.15013251623244
18	2.2001574880617
19	2.24839662791713
20	2.29474704585771
21	2.33912244475897
22	2.38145382986593
23	2.42168956512821
24	2.45979486501313
25	2.49575083208593
26	2.52955315864417
27	2.56121060736497
28	2.59074337436425
29	2.61818142150992
30	2.64356284615371
31	2.66693233789316
32	2.68833975508189
33	2.70783883944817
34	2.72548607570525
35	2.74133969440766
36	2.75545881025496
37	2.76790268417641
38	2.77873009541727
39	2.78799880907944
40	2.79576512478323
41	2.8020834930119
42	2.80700618703812
43	2.81058301992953
44	2.81286109785618
45	2.81388460268086
46	2.81369459853652
47	2.81232885873834
48	2.80982171090721
49	2.80620389957137
50	2.80150246674331
51	2.79574065201757
52	2.78893781458495
53	2.78110938018679
54	2.77226681642369
55	2.76241763996783
56	2.75156545909849
57	2.7397100545815
58	2.72684750125463
59	2.71297033178211
60	2.69806774293737
61	2.68212584351333
62	2.66512794160683
63	2.64705486765079
64	2.62788532825394
65	2.6075962847338
66	2.58616334926778
67	2.56356119090348
68	2.53976394330811
69	2.51474560612281
70	2.48848043212231
71	2.46094329304162
72	2.43211001787658
73	2.40195769863374
74	2.37046495982703
75	2.33761218941631
76	2.30338173028247
77	2.26775803266485
78	2.23072776919322
79	2.19227991518235
80	2.15240579769451
81	2.11109911749789
82	2.06835594845589
83	2.02417471908316
84	1.97855618101497
85	1.93150336898185
86	1.88302155658434
87	1.83311821175081
88	1.78180295525737
89	1.72908752511527
90	1.6749857490063
91	1.61951352628564
92	1.56268882038713
93	1.5045316617687
94	1.44506416083438
95	1.38431052957457
96	1.3222971099873
97	1.25905240669411
98	1.19460712055927
99	1.12899417958094
100	1.0622487628682
101	0.994408313176111
102	0.925512533267493
103	0.855603361333335
104	0.784724920858046
105	0.712923440681273
106	0.640247141596286
107	0.56674608663674
108	0.492471993226008
109	0.417478006567803
110	0.34181843499962
111	0.265548449452452
112	0.188723750590804
113	0.11140020856745
114	0.0336334815375882
115	-0.0445213799389385
116	-0.123010334785074
117	-0.201780751405425
118	-0.280781797625337
119	-0.359964812769227
120	-0.439283654787161
121	-0.518695016340858
122	-0.598158704989918
123	-0.677637883997764
124	-0.757099271720422
125	-0.836513298966335
126	-0.915854225044385
127	-0.995100214384575
128	-1.07423337656914
129	-1.15323977331589
130	-1.23210939638948
131	-1.31083612057428
132	-1.38941763573017
133	-1.46785536158473
134	-1.54615434831235
135	-1.62432316513712
136	-1.70237377819662
137	-1.78032141774249
138	-1.8581844334548
139	-1.93598413523224
140	-2.01374461531361
141	-2.09149254601245
142	-2.16925694573957
143	-2.24706890439045
144	-2.32496125764779
145	-2.40296819837909
146	-2.48112481221218
147	-2.55946652370829
148	-2.63802843952637
149	-2.71684457584394
150	-2.79594695937474
151	-2.87536459494831
152	-2.95512229814937
153	-3.0352393992776
154	-3.1157283351014
155	3.08659214962133
156	3.00535730377561
157	2.92376972208907
158	2.84185952760335
159	2.75967090071342
160	2.67726300974194
161	2.59471054457342
162	2.51210375350398
163	2.42954790080436
164	2.34716209213316
165	2.26507745581038
166	2.18343471687329
167	2.10238125257679
168	2.02206776600282
169	1.94264475189383
170	1.86425895002338
171	1.78704998300518
172	1.71114735717528
173	1.63666796998281
174	1.5637142206113
175	1.49237276905474
176	1.42271393927098
177	1.3547917197884
178	1.28864428376346
179	1.22429493133902
180	1.16175334970743
